----Metadata----
Import schema version,1
----SpecMetadata----
Manufacturer,Model Name,Acquisition Frequency (MHz),Frequency Start (MHz),Frequency End (MHz),Nominal Gain (dBi),Beamwidth (Degrees),Electrical Downtilt (Degrees),Electrical Downtilt (Min),Electrical Downtilt (Max),Polarization,Description
KP Performance,KP-2SX4-33,2450,2300,2700,18.5,36,0,,,VERTICAL,ProLine Sector Antenna
----PatternData----
Angle (Degrees),Azimuth Gain (dBi),Elevation Gain (dBi)
-179,-17.275,-16.541
-178,-17.257,-17.586
-177,-17.343,-20.42
-176,-17.547,-23.738
-175,-17.889,-21.526
-174,-18.4,-19.384
-173,-19.113,-18.292
-172,-20.09,-17.796
-171,-21.415,-17.559
-170,-23.194,-17.348
-169,-25.523,-17.024
-168,-27.341,-16.817
-167,-26.825,-17.023
-166,-25.737,-17.665
-165,-24.485,-18.822
-164,-22.839,-20.684
-163,-21.117,-23.833
-162,-19.606,-30.406
-161,-18.37,-26.098
-160,-17.386,-24.207
-159,-16.639,-23.898
-158,-16.077,-24.477
-157,-15.683,-25.76
-156,-15.436,-27.676
-155,-15.308,-30.023
-154,-15.293,-32.009
-153,-15.367,-32.74
-152,-15.518,-32.684
-151,-15.73,-32.135
-150,-15.993,-31.311
-149,-16.29,-30.73
-148,-16.621,-30.777
-147,-16.968,-31.777
-146,-17.317,-34.569
-145,-17.665,-42.543
-144,-17.999,-34.047
-143,-18.316,-32.013
-142,-18.61,-31.457
-141,-18.867,-31.534
-140,-19.055,-31.601
-139,-19.149,-31.598
-138,-19.093,-32.212
-137,-18.866,-34.405
-136,-18.471,-42.33
-135,-17.944,-36.531
-134,-17.345,-35.551
-133,-16.726,-36.104
-132,-16.132,-32.162
-131,-15.595,-29.535
-130,-15.135,-28.313
-129,-14.769,-28.119
-128,-14.496,-28.883
-127,-14.32,-30.794
-126,-14.238,-34.606
-125,-14.238,-41.704
-124,-14.32,-39.633
-123,-14.468,-33.667
-122,-14.668,-29.192
-121,-14.907,-26.319
-120,-15.168,-24.316
-119,-15.423,-22.885
-118,-15.659,-21.885
-117,-15.847,-21.244
-116,-15.965,-20.919
-115,-16.005,-20.885
-114,-15.951,-21.116
-113,-15.816,-21.571
-112,-15.612,-22.188
-111,-15.356,-22.884
-110,-15.066,-23.597
-109,-14.769,-24.312
-108,-14.468,-25.013
-107,-14.18,-25.536
-106,-13.908,-25.551
-105,-13.648,-24.971
-104,-13.408,-24.118
-103,-13.176,-23.266
-102,-12.948,-22.52
-101,-12.722,-21.913
-100,-12.491,-21.461
-99,-12.252,-21.173
-98,-12.005,-21.051
-97,-11.747,-21.084
-96,-11.481,-21.253
-95,-11.21,-21.524
-94,-10.931,-21.851
-93,-10.653,-22.196
-92,-10.376,-22.542
-91,-10.102,-22.901
-90,-9.836,-23.309
-89,-9.577,-23.796
-88,-9.327,-24.377
-87,-9.089,-25.042
-86,-8.862,-25.759
-85,-8.648,-26.471
-84,-8.449,-27.077
-83,-8.269,-27.434
-82,-8.113,-27.429
-81,-7.987,-27.106
-80,-7.899,-26.625
-79,-7.852,-26.113
-78,-7.844,-25.603
-77,-7.885,-25.052
-76,-7.982,-24.409
-75,-8.134,-23.68
-74,-8.351,-22.949
-73,-8.629,-22.298
-72,-8.969,-21.757
-71,-9.373,-21.304
-70,-9.842,-20.89
-69,-10.373,-20.48
-68,-10.977,-20.065
-67,-11.657,-19.636
-66,-12.429,-19.158
-65,-13.324,-18.518
-64,-14.372,-17.547
-63,-15.65,-16.188
-62,-17.265,-14.594
-61,-19.409,-12.964
-60,-22.445,-11.412
-59,-26.907,-9.969
-58,-27.652,-8.629
-57,-22.257,-7.377
-56,-18.015,-6.196
-55,-14.803,-5.077
-54,-12.217,-4.019
-53,-10.065,-3.029
-52,-8.215,-2.119
-51,-6.595,-1.301
-50,-5.161,-0.592
-49,-3.881,-0.009
-48,-2.73,0.433
-47,-1.691,0.715
-46,-0.747,0.821
-45,0.119,0.73
-44,0.914,0.421
-43,1.655,-0.139
-42,2.35,-0.997
-41,3.009,-2.232
-40,3.642,-3.977
-39,4.253,-6.472
-38,4.847,-10.012
-37,5.43,-12.955
-36,6.005,-13.635
-35,6.578,-11.276
-34,7.16,-7.614
-33,7.748,-5.365
-32,8.342,-4.144
-31,8.9392,-3.746
-30,9.5346,-4.169
-29,10.126,-5.578
-28,10.708,-8.337
-27,11.277,-11.292
-26,11.829,-13.26
-25,12.362,-9.22
-24,12.871,-3.64
-23,13.355,-0.554
-22,13.813,1.373
-21,14.243,2.514
-20,14.646,3.001
-19,15.022,2.861
-18,15.371,2.034
-17,15.695,0.351
-16,15.996,-2.48
-15,16.274,-5.636
-14,16.533,-6.108
-13,16.773,-4.46
-12,16.997,-1.025
-11,17.205,1.118
-10,17.399,1.974
-9,17.579,1.567
-8,17.746,-0.619
-7,17.9,-7.67
-6,18.04,-7.531
-5,18.165,-0.11
-4,18.273,6.132
-3,18.361,9.9955
-2,18.428,12.733
-1,18.474,14.761
0,18.499,16.266
1,18.5,17.346
2,18.48,18.06
3,18.438,18.44
4,18.375,18.5
5,18.295,18.241
6,18.203,17.655
7,18.098,16.719
8,17.982,15.344
9,17.854,13.429
10,17.715,10.937
11,17.563,7.965
12,17.397,5.102
13,17.217,3.465
14,17.02,3.581
15,16.804,4.348
16,16.569,4.732
17,16.311,4.535
18,16.028,3.781
19,15.72,2.487
20,15.384,0.615
21,15.018,-1.97
22,14.624,-5.634
23,14.2,-11.497
24,13.748,-18.641
25,13.27,-19.631
26,12.767,-11.962
27,12.242,-9.256
28,11.7,-8.151
29,11.144,-7.735
30,10.579,-7.192
31,10.009,-6.125
32,9.4384,-4.793
33,8.8712,-3.505
34,8.31,-2.498
35,7.754,-1.879
36,7.2,-1.647
37,6.638,-1.774
38,6.066,-2.242
39,5.479,-3.017
40,4.876,-4.125
41,4.251,-5.745
42,3.597,-8.305
43,2.903,-13.235
44,2.16,-18.636
45,1.359,-19.151
46,0.484,-12.656
47,-0.475,-7.887
48,-1.531,-5.751
49,-2.703,-4.988
50,-4.008,-5.159
51,-5.467,-6.033
52,-7.113,-7.545
53,-8.984,-9.451
54,-11.138,-11.05
55,-13.667,-11.461
56,-16.644,-9.522
57,-20.182,-6.943
58,-24.844,-4.945
59,-26.906,-3.532
60,-20.997,-2.587
61,-18.017,-2.024
62,-15.973,-1.789
63,-14.402,-1.848
64,-13.116,-2.183
65,-12.024,-2.791
66,-11.05,-3.677
67,-10.184,-4.861
68,-9.402,-6.378
69,-8.694,-8.28
70,-8.065,-10.612
71,-7.508,-13.239
72,-7.027,-15.296
73,-6.625,-15.854
74,-6.302,-15.082
75,-6.053,-13.418
76,-5.886,-11.747
77,-5.789,-10.417
78,-5.762,-9.433
79,-5.797,-8.736
80,-5.891,-8.273
81,-6.045,-8
82,-6.244,-7.885
83,-6.478,-7.902
84,-6.735,-8.034
85,-7.007,-8.262
86,-7.277,-8.575
87,-7.547,-8.964
88,-7.807,-9.422
89,-8.058,-9.943
90,-8.304,-10.521
91,-8.544,-11.144
92,-8.788,-11.796
93,-9.042,-12.462
94,-9.311,-13.12
95,-9.601,-13.751
96,-9.92,-14.338
97,-10.266,-14.866
98,-10.642,-15.333
99,-11.044,-15.742
100,-11.463,-16.106
101,-11.894,-16.431
102,-12.322,-16.718
103,-12.732,-16.967
104,-13.11,-17.176
105,-13.443,-17.344
106,-13.723,-17.472
107,-13.946,-17.561
108,-14.116,-17.614
109,-14.238,-17.64
110,-14.321,-17.652
111,-14.375,-17.664
112,-14.406,-17.688
113,-14.419,-17.728
114,-14.416,-17.787
115,-14.398,-17.87
116,-14.36,-17.986
117,-14.304,-18.151
118,-14.224,-18.378
119,-14.119,-18.675
120,-13.994,-19.047
121,-13.85,-19.503
122,-13.704,-20.071
123,-13.563,-20.793
124,-13.44,-21.722
125,-13.35,-22.892
126,-13.311,-24.239
127,-13.33,-25.449
128,-13.425,-25.965
129,-13.606,-25.615
130,-13.875,-24.694
131,-14.25,-23.533
132,-14.719,-22.406
133,-15.28,-21.469
134,-15.922,-20.778
135,-16.617,-20.341
136,-17.318,-20.157
137,-17.97,-20.233
138,-18.514,-20.601
139,-18.914,-21.323
140,-19.164,-22.513
141,-19.289,-24.378
142,-19.322,-27.369
143,-19.289,-31.678
144,-19.204,-30.155
145,-19.069,-28.833
146,-18.883,-28.57
147,-18.643,-28.673
148,-18.35,-29.124
149,-18.012,-30.327
150,-17.647,-32.638
151,-17.257,-33.832
152,-16.876,-32.689
153,-16.525,-32.107
154,-16.225,-30.465
155,-15.996,-28.332
156,-15.863,-26.96
157,-15.832,-26.457
158,-15.925,-26.801
159,-16.155,-28.09
160,-16.527,-30.697
161,-17.071,-34.845
162,-17.782,-33.168
163,-18.673,-31.613
164,-19.739,-31.294
165,-20.939,-31.297
166,-22.213,-30.477
167,-23.498,-29.083
168,-24.844,-27.999
169,-26.349,-27.332
170,-26.975,-26.884
171,-25.254,-26.289
172,-23.222,-25.477
173,-21.644,-24.826
174,-20.452,-24.786
175,-19.536,-25.835
176,-18.833,-25.869
177,-18.293,-24.229
178,-17.885,-27.159
179,-17.587,-21.162
180,-17.385,-17.46
